# wl (nm), spectrum (a.u.), gdd (fs^2),phase
1.149442826461950470e-06, 5.666716790319422346e-03, 3.071691113839401413e-26, -3.191704471559577172e+01
1.148123144686448798e-06, 6.251182202379463107e-03, 1.611323729370599445e-26, -3.384177517240904365e+01
1.146806489704010275e-06, 5.840812449894474886e-03, -2.767610563618244529e-26, -3.305747676692061532e+01
1.145492851113283974e-06, 6.099994365944508279e-03, 2.981090505965878118e-26, -3.437836357408161803e+01
1.144182218560522853e-06, 6.095424642428533442e-03, 1.244121708178236468e-27, -3.187510525494868574e+01
1.142874581739310801e-06, 6.429239254223047782e-03, -4.860968817192768746e-27, -3.019489272081339593e+01
1.141569930390293282e-06, 6.240183153824165919e-03, -6.089438737923132881e-26, -2.720914027329826368e+01
1.140268254300908612e-06, 6.618744781442980826e-03, 1.238800681399649792e-25, -2.682856729254040573e+01
1.138969543305121779e-06, 7.445528583529411291e-03, 1.481548622657848602e-26, -2.643987560365096101e+01
1.137673787283159113e-06, 8.576610290132615985e-03, 2.599397768557353811e-26, -2.452167707194410085e+01
1.136380976161246547e-06, 9.995763567264764199e-03, -6.432285264195474791e-26, -2.180963626857781890e+01
1.135091099911347257e-06, 1.207724708065754070e-02, 2.425178029222107092e-25, -2.441262678574934952e+01
1.133804148550903519e-06, 1.504856452471944363e-02, 3.940158157100596818e-26, -2.158428654846840899e+01
1.132520112142578583e-06, 1.910258059975826136e-02, 3.909722372203560246e-27, -1.936689929175529912e+01
1.131238980794001077e-06, 2.379745470587030232e-02, 1.105525805857038447e-25, -2.245013402592918794e+01
1.129960744657510689e-06, 3.091388970860051155e-02, 1.036754251300515227e-25, -1.955154776221981550e+01
1.128685393929906169e-06, 3.856108943756902940e-02, 6.600628765285281102e-26, -1.654931274177132039e+01
1.127412918852195036e-06, 4.878235099313847634e-02, 1.025154420817184212e-25, -1.382728907940460594e+01
1.126143309709343490e-06, 6.117078045698045446e-02, 4.892951363064305811e-26, -1.099101729346193324e+01
1.124876556830030348e-06, 7.648351641370546017e-02, 1.639045377829595154e-26, -8.205331173759930152e+00
1.123612650586400981e-06, 9.459088076740472528e-02, 1.408947996375090406e-26, -5.549249940145237758e+00
1.122351581393823581e-06, 1.161577094433925844e-01, 1.069292380036570396e-26, -2.673851633211711931e+00
1.121093339710646698e-06, 1.412032592355867144e-01, -1.072737405378263840e-27, 2.206308351973279847e-01
1.119837916037958470e-06, 1.705861532741865250e-01, -1.239906259251677454e-27, 2.971316969703980071e+00
1.118585300919347760e-06, 2.028040796125528678e-01, 1.002884359094587703e-27, 5.748920894637832291e+00
1.117335484940666988e-06, 2.385522502712717763e-01, 1.510437040026548361e-28, 8.539689760865325496e+00
1.116088458729795595e-06, 2.774694873639397263e-01, -2.981980747970452284e-28, 1.133031180937878801e+01
1.114844212956406899e-06, 3.207914959329806193e-01, -2.325550055813389116e-28, 1.413210121197114688e+01
1.113602738331733676e-06, 3.655661662100856968e-01, 1.402210769342121068e-29, 1.692764636648491106e+01
1.112364025608339041e-06, 4.104901983396895271e-01, 5.967171157008837678e-28, 1.972915405668524969e+01
1.111128065579885419e-06, 4.584683290759637431e-01, -3.533233252394733369e-29, 2.251755615460617577e+01
1.109894849080906690e-06, 5.056204924817264690e-01, -8.079338724264327873e-28, 2.530994949969434771e+01
1.108664366986582034e-06, 5.522220031416130714e-01, 5.942946134160720670e-28, 2.813066946253263367e+01
1.107436610212510409e-06, 5.966200981204680120e-01, -3.651581636804477707e-28, 3.092025053319245131e+01
1.106211569714487780e-06, 6.401060507109725961e-01, 7.647457702233831064e-28, 3.369111699194007770e+01
1.104989236488283926e-06, 6.798078442442809788e-01, -9.753781324786229142e-28, 3.650308648438043946e+01
1.103769601569422635e-06, 7.153821085054572482e-01, 2.763948822683474830e-28, 3.929843691594516031e+01
1.102552656032962323e-06, 7.486381305678402320e-01, 1.905551466159051861e-28, 4.209161714437693291e+01
1.101338390993278556e-06, 7.780821774209933928e-01, -2.718014630499280706e-28, 4.488841221180499730e+01
1.100126797603847002e-06, 8.017819901660884208e-01, 4.473298422135844644e-29, 4.769160435588946001e+01
1.098917867057029552e-06, 8.208805242713412831e-01, 1.444276347093398979e-28, 5.049005981682869759e+01
1.097711590583860444e-06, 8.368061974877740727e-01, 1.347661208759556539e-29, 5.327252144297880676e+01
1.096507959453834295e-06, 8.468988299025447253e-01, -5.281309959349042723e-29, 5.607296517929612634e+01
1.095306964974695401e-06, 8.539441355096583086e-01, -2.469950469442600423e-28, 5.886113973284107459e+01
1.094108598492228519e-06, 8.579384872330599876e-01, 4.975687202205321804e-29, 6.165624598326635208e+01
1.092912851390051131e-06, 8.587960073453947407e-01, 1.206052762339232548e-28, 6.445821715353756076e+01
1.091719715089406984e-06, 8.550555600526887901e-01, -1.080869993354047440e-28, 6.723882573355747638e+01
1.090529181048960680e-06, 8.489167783046183136e-01, 1.880948407163536717e-28, 7.003919953462636272e+01
1.089341240764593544e-06, 8.417588235675443897e-01, -5.884280559843500911e-28, 7.284383905614333798e+01
1.088155885769202239e-06, 8.314982944315043589e-01, 5.560791595724149096e-28, 7.562524200744091729e+01
1.086973107632496541e-06, 8.187310882703517922e-01, -6.712347904916014586e-29, 7.842579610959678860e+01
1.085792897960800071e-06, 8.040487257346665695e-01, 3.490449219445371844e-29, 8.122415366383738444e+01
1.084615248396851242e-06, 7.890719627542578385e-01, -1.928116778801897399e-28, 8.401090708821833175e+01
1.083440150619606540e-06, 7.708228547848310352e-01, -1.111466617161656478e-28, 8.681139135158771580e+01
1.082267596344044220e-06, 7.518745474254862060e-01, 1.832359735935800567e-28, 8.960317148811296306e+01
1.081097577320969700e-06, 7.329426018357845241e-01, -1.049532057099653473e-28, 9.240153768352264763e+01
1.079930085336821805e-06, 7.129940900074823729e-01, 1.037956208830439390e-28, 9.518382634681456977e+01
1.078765112213481123e-06, 6.927526022632128910e-01, -3.073409929440972108e-28, 9.799187594745951913e+01
1.077602649808078579e-06, 6.729226437417540341e-01, 8.476518311936526670e-29, 1.007796154013791181e+02
1.076442690012806119e-06, 6.537398135720209336e-01, 1.194280773746631056e-28, 1.035803406583662820e+02
1.075285224754727825e-06, 6.342835444025284319e-01, 3.012674601404900220e-29, 1.063642763088503926e+02
1.074130245995592718e-06, 6.157990749091603044e-01, -1.974730508540229109e-28, 1.091694477143891220e+02
1.072977745731649050e-06, 5.977367963084930791e-01, -1.403170932632881788e-28, 1.119528698620938059e+02
1.071827715993458586e-06, 5.798208287939911054e-01, 2.573763560039363555e-28, 1.147413049603625552e+02
1.070680148845714074e-06, 5.633386380042609831e-01, -2.680358083789405214e-28, 1.175497303000951490e+02
1.069535036387055437e-06, 5.469292789004995825e-01, 2.206398880612389197e-28, 1.203194626127076106e+02
1.068392370749889777e-06, 5.308380265026902967e-01, -5.826625154603163582e-29, 1.231223406366175794e+02
1.067252144100210112e-06, 5.156582455871274728e-01, -3.593375981607871719e-28, 1.259141717988398170e+02
1.066114348637416650e-06, 5.023384051652114435e-01, 3.629611835122561180e-28, 1.287075550963024853e+02
1.064978976594139339e-06, 4.885286727278821961e-01, -4.011057034666597795e-28, 1.315044265157533232e+02
1.063846020236060408e-06, 4.764637853834576831e-01, 6.917534328867822985e-28, 1.342913784350055266e+02
1.062715471861739463e-06, 4.655562581212271400e-01, -4.376949369663467036e-28, 1.370602238101106138e+02
1.061587323802438141e-06, 4.565819136149886770e-01, -4.348431380206667912e-28, 1.398701500914376084e+02
1.060461568421947959e-06, 4.488898487325068132e-01, 4.605543572396005814e-28, 1.426669041133096982e+02
1.059338198116416244e-06, 4.427661791311029993e-01, -2.275326478152388023e-28, 1.454488780715725511e+02
1.058217205314176731e-06, 4.387888073849286474e-01, 1.383215669449737720e-28, 1.482596037708613039e+02
1.057098582475578243e-06, 4.358729493307332281e-01, 8.081510755316418076e-29, 1.510409818554711592e+02
1.055982322092816139e-06, 4.360384719929720210e-01, -5.522160854805610503e-28, 1.538615712012125982e+02
1.054868416689764598e-06, 4.384086418306941679e-01, 1.800698724810260154e-28, 1.566187964830164674e+02
1.053756858821809118e-06, 4.429148755668205206e-01, 4.505734390426847343e-28, 1.594305695843223418e+02
1.052647641075680923e-06, 4.497141361843621787e-01, -4.376989628590707689e-28, 1.622269848624717952e+02
1.051540756069292213e-06, 4.610343511934390515e-01, -2.259491916950645897e-28, 1.650005237640121436e+02
1.050436196451572263e-06, 4.747947608698302457e-01, 2.330472107212092257e-28, 1.678037618769153596e+02
1.049333954902305219e-06, 4.931548686548889449e-01, 2.158909171041195125e-28, 1.705839696311614091e+02
1.048234024131967253e-06, 5.159683237866730110e-01, -3.465127512234020242e-28, 1.733926842336580876e+02
1.047136396881567322e-06, 5.425696532943149464e-01, 5.135919231032692166e-29, 1.761767182744493425e+02
1.046041065922486232e-06, 5.748104418350746814e-01, -2.724077733524387193e-28, 1.789682598479169258e+02
1.044948024056318455e-06, 6.107023709946358681e-01, 3.960844205796325713e-29, 1.817602146050327576e+02
1.043857264114715002e-06, 6.519212746342676335e-01, 6.534453379409571236e-28, 1.845497476840914999e+02
1.042768778959225241e-06, 6.982333182835348540e-01, -4.181190676919371503e-28, 1.873492383653100433e+02
1.041682561481142739e-06, 7.472420255532983280e-01, -5.377450463188005093e-28, 1.901233350625327034e+02
1.040598604601349617e-06, 7.986995833940698786e-01, 5.808448097725193471e-28, 1.929360265145690221e+02
1.039516901270163238e-06, 8.504425302257785368e-01, -1.460009392775749665e-28, 1.957179287911467611e+02
1.038437444467182682e-06, 8.995689251122563901e-01, -2.833785446534614402e-28, 1.985049506789690952e+02
1.037360227201137975e-06, 9.427200841812108933e-01, 1.335985942082850972e-28, 2.013020742663291571e+02
1.036285242509737621e-06, 9.757459693201975259e-01, -9.570795983848501894e-29, 2.040868045833506415e+02
1.035212483459520586e-06, 9.952917864154688932e-01, -2.841809706463834981e-29, 2.068747974125873270e+02
1.034141943145705101e-06, 9.988151485644782834e-01, -9.043737045227136981e-29, 2.096774255228755806e+02
1.033073614692042123e-06, 9.819317683340915703e-01, -1.457754120009296827e-28, 2.124585841570153946e+02
1.032007491250667534e-06, 9.445996882922736981e-01, 5.067539474719500640e-29, 2.152443494087820284e+02
1.030943566001955386e-06, 8.879171785206861900e-01, 6.795400251264215775e-29, 2.180308136348411381e+02
1.029881832154373696e-06, 8.155474708236813974e-01, -1.659686341916812928e-28, 2.208245251325301695e+02
1.028822282944338335e-06, 7.295112441204119058e-01, -1.366918770093786992e-28, 2.236181776674086166e+02
1.027764911636070935e-06, 6.372104685329275098e-01, 5.244464547320152774e-29, 2.264149778676518281e+02
1.026709711521454894e-06, 5.426315501584881851e-01, 2.212498757344827740e-29, 2.291943918910521063e+02
1.025656675919894347e-06, 4.509998671397611458e-01, -2.197816734456439198e-28, 2.319824267362629939e+02
1.024605798178173134e-06, 3.654981351771888765e-01, 5.746236837419345405e-28, 2.347576956998558444e+02
1.023557071670314191e-06, 2.890465822187462397e-01, -1.321329971004767486e-27, 2.375518362278475593e+02
1.022510489797440640e-06, 2.242438113855986515e-01, 6.109815022116105824e-28, 2.403493035338598816e+02
1.021466045987637294e-06, 1.701550307633266090e-01, 1.941263795946562364e-27, 2.431653734879768649e+02
1.020423733695813231e-06, 1.262048164835991582e-01, -9.328308436145827833e-27, 2.458713153782847485e+02
1.019383546403564572e-06, 9.248002332437267603e-02, -2.717665308244409524e-26, 2.486536140257939564e+02
1.018345477619039591e-06, 6.645025374838113563e-02, -2.522991110248634918e-26, 2.513841166282621487e+02
1.017309520876802557e-06, 4.758449911389948939e-02, -1.429454145056136838e-25, 2.542360681712592907e+02
1.016275669737700109e-06, 3.382094890138203497e-02, -1.260503197526623366e-25, 2.570583413624826790e+02
1.015243917788727645e-06, 2.355215466067621388e-02, -9.060937976957456640e-26, 2.598178034865601376e+02
1.014214258642897386e-06, 1.701842628948956743e-02, -1.922804663207827148e-25, 2.569735724489525523e+02
1.013186685939105403e-06, 1.235291274281270779e-02, -5.481410399808766283e-26, 2.593340796827429244e+02
1.012161193342000953e-06, 9.416737766143126048e-03, -4.486242239439933466e-26, 2.616697193634195173e+02
1.011137774541857312e-06, 7.281520213832727226e-03, -8.116505628283052314e-26, 2.631040948851974122e+02
1.010116423254441328e-06, 6.907154995404495360e-03, -2.476453523612549068e-26, 2.628613592692715883e+02
1.009097133220884890e-06, 6.553397255535748679e-03, 5.317086748075165749e-26, 2.638467260725979031e+02
1.008079898207557442e-06, 6.050196845808463071e-03, -1.450868901982631658e-25, 2.666694363558058285e+02
1.007064712005938508e-06, 5.692250520938905121e-03, 1.385758860606689656e-25, 2.687606676077380712e+02
1.006051568432491909e-06, 5.827084723534394460e-03, -4.079412310711255929e-26, 2.710467659769770421e+02
1.005040461328539553e-06, 5.953246369851197990e-03, -3.733712442127297246e-26, 2.695002156784555609e+02
1.004031384560137345e-06, 5.905922453248304421e-03, 1.239808116966148008e-26, 2.696073741213068615e+02
1.003024332017950675e-06, 5.583605754146179698e-03, 1.674559882107123252e-26, 2.716886625585265733e+02
1.002019297617131172e-06, 6.071088794673508947e-03, 4.250717523309170940e-26, 2.702017128943954276e+02
1.001016275297194096e-06, 5.831041095024904093e-03, -4.206317188474895464e-26, 2.671238331132059329e+02
1.000015259021896792e-06, 6.124986220710684770e-03, 1.917370620267634788e-26, 2.649373349047563693e+02
9.990162427791177741e-07, 5.737597402807325352e-03, -4.666399552076105022e-26, 2.650874084750406610e+02
9.980192205807355977e-07, 5.986985681968562574e-03, -1.445819128345849410e-26, 2.646548213061363413e+02
9.970241864625094314e-07, 5.808409713899645617e-03, 5.415076370466607614e-26, 2.666777211674018417e+02
9.960311344839611055e-07, 6.088212821586141965e-03, -2.600682077133267442e-26, 2.656028207131400904e+02
9.950400587282556813e-07, 5.797592892672312655e-03, 5.476088748201411515e-26, 2.627962295296235311e+02
9.940509533020843481e-07, 5.500104793807748284e-03, -5.456295089823068053e-27, 2.659116137781156795e+02
9.930638123355481686e-07, 5.301239462098872313e-03, -4.199115281129398798e-26, 2.639335442888817624e+02
9.920786299820405527e-07, 5.761993690511482170e-03, 3.740580196038865516e-26, 2.614679333896684170e+02
9.910954004181337548e-07, 5.822684700994902596e-03, -5.351316471599516010e-26, 2.608121928598252453e+02
9.901141178434621958e-07, 5.877892043211930574e-03, 2.090508652959698416e-26, 2.636665310761724186e+02
9.891347764806102306e-07, 6.065436973263334079e-03, 4.805151853364508507e-26, 2.666535828768224405e+02
9.881573705749969518e-07, 5.496044441294138660e-03, -5.060437489776036369e-26, 2.663143645013133209e+02
9.871818943947648048e-07, 5.665836236433853014e-03, 4.787891209057546891e-26, 2.682717474958281514e+02
9.862083422306675680e-07, 5.860000761281455167e-03, -3.208191786963692082e-26, 2.680180597190782237e+02
9.852367083959574852e-07, 5.372953964434917969e-03, -6.556557302709928347e-26, 2.688189362847474513e+02
9.842669872262764221e-07, 5.777891720377601598e-03, 7.070748490945993922e-26, 2.702951294747213069e+02
9.832991730795446935e-07, 5.787976205913144406e-03, -5.005824907687321017e-26, 2.699696876986751022e+02
9.823332603358515837e-07, 5.631979507989918858e-03, -1.121860363318734822e-26, 2.703632328492723786e+02
9.813692433973473503e-07, 5.755606098296023147e-03, 9.973416885482856096e-26, 2.688017815174209773e+02
9.804071166881341683e-07, 5.878350559930855222e-03, -7.568302334120004434e-26, 2.705396141711685232e+02
9.794468746541596162e-07, 5.429012324023364984e-03, 2.783794139418383825e-26, 2.713226553954995666e+02
9.784885117631084671e-07, 5.464017281372848464e-03, -6.400855366788503047e-27, 2.689150882872926331e+02
9.775320225042980803e-07, 5.743704269981840353e-03, -1.357649825422211561e-26, 2.675105407010442491e+02
9.765774013885712517e-07, 5.461574513976229055e-03, 2.981662874111572954e-26, 2.655976955018568333e+02
9.756246429481920287e-07, 5.913127969355938193e-03, 1.890166335095536030e-27, 2.628915431059152752e+02
9.746737417367415250e-07, 5.477505399050910072e-03, -4.908116181825045575e-28, 2.605018064639558588e+02
9.737246923290135240e-07, 5.777029645087613033e-03, -1.637607006199793801e-27, 2.579906901535356383e+02
9.727774893209113524e-07, 6.107614186184749834e-03, -8.081679509539652265e-26, 2.604041598729471616e+02
9.718321273293458129e-07, 5.920228838232456138e-03, 3.958488483425447907e-26, 2.611101002177736063e+02
9.708886009921329048e-07, 5.487090523796672725e-03, 1.171312476965777531e-26, 2.614407811649894597e+02
9.699469049678921799e-07, 5.633993255478248266e-03, -3.719221861220080741e-26, 2.623067710228336864e+02
9.690070339359467931e-07, 5.908206944995613927e-03, 3.708461374980230568e-26, 2.593014159306191004e+02
9.680689825962216464e-07, 5.650928632888112084e-03, -7.555976345493708685e-26, 2.575351811995007552e+02
9.671327456691459798e-07, 5.628641722273917090e-03, 7.196971340353771099e-26, 2.584643857158438891e+02
9.661983178955525751e-07, 5.700414545248215503e-03, 3.816115431680800752e-26, 2.568046270870889316e+02
9.652656940365801345e-07, 5.504433571768977199e-03, 1.406232828269608048e-26, 2.543338362766688761e+02
9.643348688735746022e-07, 6.037269420399018170e-03, -1.794751807305881580e-26, 2.529272412386139024e+02
9.634058372079932370e-07, 5.460286284073130429e-03, -2.786960459732838309e-26, 2.548797627496751943e+02
9.624785938613059336e-07, 5.642892264299252669e-03, -5.730128292087466759e-26, 2.532165151579331734e+02
9.615531336749007782e-07, 5.994183065591817718e-03, 1.035768084857084093e-25, 2.519347270281411397e+02
9.606294515099874867e-07, 5.914416833399267596e-03, -1.398257645476298910e-25, 2.530712272569137156e+02
9.597075422475016901e-07, 5.591398398134733543e-03, 9.788428694778768173e-26, 2.499940401902657641e+02
9.587874007880123959e-07, 5.808102158146295421e-03, -3.814866684538953740e-28, 2.517880537786838886e+02
9.578690220516252151e-07, 5.836521328777723693e-03, -2.404627114475129102e-26, 2.490037345659890491e+02
9.569524009778917291e-07, 5.997722433398200610e-03, -1.340524935990788842e-26, 2.501348892675271145e+02
9.560375325257139871e-07, 5.854524346354690427e-03, 8.008821471416705812e-26, 2.480770415277139591e+02
9.551244116732540850e-07, 5.657965928025402227e-03, -1.535386917176642851e-26, 2.474698451295352868e+02
9.542130334178405687e-07, 5.652340795184734520e-03, -5.494753311516404365e-26, 2.465725548715560649e+02
9.533033927758788602e-07, 5.597524921775819291e-03, 4.982494783186948682e-26, 2.491344543983779261e+02
9.523954847827590364e-07, 5.887094033402231336e-03, -1.235537151302963459e-26, 2.474393485548741296e+02
9.514893044927658328e-07, 5.506661760144781689e-03, 1.078294057268889666e-26, 2.465253126201332918e+02
9.505848469789894925e-07, 6.004006900784598054e-03, -3.980108230184531651e-26, 2.449831708233165557e+02
