# wl (nm), spectrum (a.u.), gdd (fs^2),phase
1.149442826461950470e-06, 5.953604786032650788e-03, -5.861117137911003166e-27, -2.535225549335125663e+02
1.148123144686448798e-06, 5.968268790932631553e-03, -1.538089986858888726e-26, -2.530484705460079624e+02
1.146806489704010275e-06, 6.054030121612831092e-03, 1.481292096490633736e-26, -2.555822925052328571e+02
1.145492851113283974e-06, 6.150554348135529870e-03, 1.769688625599713803e-26, -2.554128634189611091e+02
1.144182218560522853e-06, 6.140721964100714220e-03, -4.805180422646744994e-26, -2.538578679808272796e+02
1.142874581739310801e-06, 6.371358613709596740e-03, -4.205148413631870946e-26, -2.511442058499321490e+02
1.141569930390293282e-06, 6.429163202399320286e-03, 1.504094111321068548e-26, -2.489166901432803911e+02
1.140268254300908612e-06, 7.000923816367473664e-03, -7.636382394399302655e-26, -2.510430104391313364e+02
1.138969543305121779e-06, 7.694852771531560283e-03, -1.957669581091395528e-26, -2.487176096424902880e+02
1.137673787283159113e-06, 8.353776135901297417e-03, -1.135775674466408698e-25, -2.471278188944751832e+02
1.136380976161246547e-06, 1.000908116642662722e-02, -8.031983758627959673e-26, -2.469862703611876498e+02
1.135091099911347257e-06, 1.217574861146946893e-02, -9.665472253713286122e-26, -2.478569294950665665e+02
1.133804148550903519e-06, 1.520846444070266847e-02, -7.511093238170156044e-26, -2.504068542164868632e+02
1.132520112142578583e-06, 1.899806930977887900e-02, -5.139120127472521384e-26, -2.530155025204006733e+02
1.131238980794001077e-06, 2.421183463432100003e-02, -6.606308652510084778e-27, -2.554835705037468472e+02
1.129960744657510689e-06, 3.080970445165250385e-02, -2.994975482046170487e-29, -2.579169039063312425e+02
1.128685393929906169e-06, 3.895216147988193184e-02, -2.253849930123490713e-27, -2.603042050566509147e+02
1.127412918852195036e-06, 4.925653679394186024e-02, -1.004997587635725294e-27, -2.628467273891225204e+02
1.126143309709343490e-06, 6.143792932308136251e-02, 1.990840268966796617e-27, -2.649365921782270448e+02
1.124876556830030348e-06, 7.670585562772126720e-02, 1.603650414113528673e-27, -2.673380923503413555e+02
1.123612650586400981e-06, 9.503670542287123713e-02, -1.770109123309818964e-27, -2.696546090909194504e+02
1.122351581393823581e-06, 1.161801978059529145e-01, 2.066861457220070224e-27, -2.719953259110440058e+02
1.121093339710646698e-06, 1.413020271469632994e-01, 7.835439413781336928e-29, -2.743537867070390917e+02
1.119837916037958470e-06, 1.700490897584360783e-01, 8.218445225132523070e-28, -2.767258731413259056e+02
1.118585300919347760e-06, 2.025026370865346814e-01, 1.513152373297856929e-28, -2.790685532323490747e+02
1.117335484940666988e-06, 2.383583659290171297e-01, 5.297754425016642392e-29, -2.814089718514403557e+02
1.116088458729795595e-06, 2.776600365551546989e-01, 9.958744426650421915e-28, -2.837603741006892051e+02
1.114844212956406899e-06, 3.204126019476414844e-01, 3.777515304209373397e-28, -2.860873370445723367e+02
1.113602738331733676e-06, 3.649501822097599435e-01, 2.836890493778519170e-28, -2.884437802835493585e+02
1.112364025608339041e-06, 4.106677095599861604e-01, 5.193819959875263669e-28, -2.907593669822329048e+02
1.111128065579885419e-06, 4.580586659870980459e-01, 2.922863623011651564e-28, -2.930871331491568412e+02
1.109894849080906690e-06, 5.058819161727338143e-01, 4.622245490251648656e-28, -2.954601548241099636e+02
1.108664366986582034e-06, 5.516812721415977894e-01, 1.165029350911346773e-28, -2.977937756556840441e+02
1.107436610212510409e-06, 5.964280899879070841e-01, 1.668325101119095486e-28, -3.001316288163797594e+02
1.106211569714487780e-06, 6.397572116500299666e-01, 3.962890535125001098e-28, -3.024652983700513005e+02
1.104989236488283926e-06, 6.798298170117529349e-01, 1.597038330285381951e-28, -3.047887910964539628e+02
1.103769601569422635e-06, 7.151309308650179997e-01, 2.754198910002965670e-29, -3.071355363608470839e+02
1.102552656032962323e-06, 7.485246724672116603e-01, 1.771268726949210929e-28, -3.094680696095377357e+02
1.101338390993278556e-06, 7.775416034396686049e-01, -9.685592825363987655e-29, -3.117949722264306729e+02
1.100126797603847002e-06, 8.007739344036726159e-01, 1.730191097288427732e-28, -3.141291355307048434e+02
1.098917867057029552e-06, 8.203836700445712449e-01, -4.982503417527508799e-29, -3.164562422624852047e+02
1.097711590583860444e-06, 8.364223847664504774e-01, -2.135460447131027539e-28, -3.188010304803899544e+02
1.096507959453834295e-06, 8.470992472144819319e-01, 2.165148340384930225e-28, -3.211386516653718672e+02
1.095306964974695401e-06, 8.531763708781390232e-01, -4.636990325945807689e-28, -3.234703237680836310e+02
1.094108598492228519e-06, 8.572907687808430932e-01, -4.628586907564066558e-29, -3.258098071605582504e+02
1.092912851390051131e-06, 8.578024378272390837e-01, -3.923587640331356119e-29, -3.281437478676818955e+02
1.091719715089406984e-06, 8.541635739914791303e-01, -2.433163249907543169e-28, -3.304764756479394237e+02
1.090529181048960680e-06, 8.483295847078319296e-01, -1.931567610764437179e-28, -3.328114440352038059e+02
1.089341240764593544e-06, 8.409444904740130955e-01, -2.194089885764973222e-28, -3.351600127589830436e+02
1.088155885769202239e-06, 8.308533014028306463e-01, -1.680208890263766166e-28, -3.374938150066838602e+02
1.086973107632496541e-06, 8.177163598906173059e-01, -2.059361548181457102e-28, -3.398268037840575175e+02
1.085792897960800071e-06, 8.036800818779576971e-01, -2.365217499793497298e-28, -3.421753026989293858e+02
1.084615248396851242e-06, 7.882295771587335409e-01, -2.282003662262543737e-28, -3.445148497336290347e+02
1.083440150619606540e-06, 7.701755028141381576e-01, -3.470625280306719368e-28, -3.468560092679366562e+02
1.082267596344044220e-06, 7.516411688286521731e-01, -2.788823338559755056e-29, -3.491900382807954202e+02
1.081097577320969700e-06, 7.323910698983185918e-01, -3.552798205691953266e-28, -3.515472510520900755e+02
1.079930085336821805e-06, 7.126618949560189487e-01, -4.304898817183978170e-28, -3.538876184418765547e+02
1.078765112213481123e-06, 6.918140422586422922e-01, -1.529718561409689711e-28, -3.562287861840978280e+02
1.077602649808078579e-06, 6.723645180151823775e-01, -2.903267161842965839e-28, -3.585708947703770377e+02
1.076442690012806119e-06, 6.529378329720958440e-01, -3.242713371337527231e-28, -3.609071600628203669e+02
1.075285224754727825e-06, 6.332995946405939325e-01, -2.486635052847344940e-28, -3.632746771534568779e+02
1.074130245995592718e-06, 6.150559116745525357e-01, -1.530433624202017866e-28, -3.656296666350747842e+02
1.072977745731649050e-06, 5.973785813128775768e-01, -5.490200501864829771e-28, -3.679694015611706845e+02
1.071827715993458586e-06, 5.798519810567239752e-01, -1.088254659235392332e-28, -3.703204082339626666e+02
1.070680148845714074e-06, 5.624550972512620817e-01, -4.206156226608513899e-28, -3.726560536797524605e+02
1.069535036387055437e-06, 5.463616140859772763e-01, -1.439384961094568891e-28, -3.750301466825735588e+02
1.068392370749889777e-06, 5.304986588431719330e-01, -1.850347626742428230e-28, -3.774032903131545709e+02
1.067252144100210112e-06, 5.153351396698164777e-01, -4.240548905986590279e-28, -3.797394332168630058e+02
1.066114348637416650e-06, 5.012044320421028543e-01, -2.971628136982663773e-28, -3.821026180935114667e+02
1.064978976594139339e-06, 4.885329061135712525e-01, -2.161547389394782095e-28, -3.844455025514031377e+02
1.063846020236060408e-06, 4.761393682375804071e-01, -9.669590746054985995e-29, -3.868200747203943024e+02
1.062715471861739463e-06, 4.651965244136778144e-01, -3.414310053518853629e-28, -3.891878053670911299e+02
1.061587323802438141e-06, 4.561953575571237041e-01, -1.381206236204885991e-28, -3.915431584720999467e+02
1.060461568421947959e-06, 4.486353533442541952e-01, -3.327696980326979429e-28, -3.938969153373301992e+02
1.059338198116416244e-06, 4.422941408243641903e-01, -2.345830782216855223e-28, -3.962739754211646641e+02
1.058217205314176731e-06, 4.380416835602023440e-01, -8.723164453784995758e-29, -3.986511873609592840e+02
1.057098582475578243e-06, 4.357320300255771994e-01, -3.055686047535070459e-28, -4.009799129983173316e+02
1.055982322092816139e-06, 4.355438222564942952e-01, -3.665356643383811238e-28, -4.033502683515857825e+02
1.054868416689764598e-06, 4.375280311406356537e-01, -1.835955108476182220e-28, -4.057521019168370913e+02
1.053756858821809118e-06, 4.422492491544285920e-01, -1.042484602323539518e-28, -4.081027960173388465e+02
1.052647641075680923e-06, 4.498093616793399363e-01, -2.306285800655210077e-28, -4.104711844340419589e+02
1.051540756069292213e-06, 4.603133807168331981e-01, -3.096101535298489485e-28, -4.128213219076290557e+02
1.050436196451572263e-06, 4.747120568961504805e-01, -3.040816435964040578e-28, -4.151887957859637481e+02
1.049333954902305219e-06, 4.928781312053881480e-01, -1.262289336711173613e-28, -4.175629282163388893e+02
1.048234024131967253e-06, 5.154095713157592629e-01, -3.091006197728694868e-28, -4.199382715786590552e+02
1.047136396881567322e-06, 5.424442331591079469e-01, -3.101970420238450756e-28, -4.222979238463238403e+02
1.046041065922486232e-06, 5.743656512360481026e-01, 3.503670017167161151e-29, -4.246802895295802500e+02
1.044948024056318455e-06, 6.107367229250115770e-01, -4.403351957639404062e-28, -4.270579687776492506e+02
1.043857264114715002e-06, 6.520809316256565014e-01, -9.188377348392458161e-29, -4.294309931486575920e+02
1.042768778959225241e-06, 6.977480956433610437e-01, -2.266523396932770078e-28, -4.318056198645697350e+02
1.041682561481142739e-06, 7.473634627353465953e-01, -1.324853817882776157e-28, -4.341818486209416506e+02
1.040598604601349617e-06, 7.986990384967024292e-01, -3.025094936057559390e-28, -4.365569272371067200e+02
1.039516901270163238e-06, 8.505536977522983877e-01, -1.742806385579456303e-28, -4.389408233070782899e+02
1.038437444467182682e-06, 8.997679771392012027e-01, -2.303478914838383007e-28, -4.413199868725543524e+02
1.037360227201137975e-06, 9.428461106988342832e-01, -9.312830848428841209e-29, -4.436955993623288350e+02
1.036285242509737621e-06, 9.763489847336123129e-01, -2.821509845523641124e-28, -4.460811892381072425e+02
1.035212483459520586e-06, 9.958128095084214371e-01, -1.469209553234883941e-28, -4.484552427878372782e+02
1.034141943145705101e-06, 9.986379502897765326e-01, -3.015651444273080096e-28, -4.508420166279452701e+02
1.033073614692042123e-06, 9.814879225160811904e-01, -1.445888814653279639e-28, -4.532312806348931531e+02
1.032007491250667534e-06, 9.446026970230910758e-01, -2.783284370135620116e-28, -4.556089590765433286e+02
1.030943566001955386e-06, 8.879576493076984933e-01, -2.956565426381390108e-28, -4.579869390607592550e+02
1.029881832154373696e-06, 8.150681182674341940e-01, -1.609959669335591193e-28, -4.603886545677661957e+02
1.028822282944338335e-06, 7.297051390584139430e-01, -2.543796626059914173e-28, -4.627707063069078686e+02
1.027764911636070935e-06, 6.375348318559543870e-01, -2.289360701500733421e-28, -4.651613132640662798e+02
1.026709711521454894e-06, 5.428263700070735664e-01, -1.766833946494937977e-28, -4.675333307394590747e+02
1.025656675919894347e-06, 4.509659309677916950e-01, -3.675352667939634060e-28, -4.699130248795789271e+02
1.024605798178173134e-06, 3.657596626763240377e-01, 3.164500703264544680e-29, -4.723207280887034472e+02
1.023557071670314191e-06, 2.892186245335794381e-01, -3.300177832671572111e-28, -4.747252120697332316e+02
1.022510489797440640e-06, 2.239809849537298114e-01, -8.008834988257950537e-29, -4.771299652288964239e+02
1.021466045987637294e-06, 1.698941289684637312e-01, 9.837287301907275830e-29, -4.794328337800915278e+02
1.020423733695813231e-06, 1.265008773350958238e-01, -5.532693581333964208e-28, -4.818829642038826933e+02
1.019383546403564572e-06, 9.257573217316941716e-02, -3.145300111864340802e-28, -4.842632482948108645e+02
1.018345477619039591e-06, 6.651412325909122902e-02, -2.020419257839031644e-28, -4.867187658115602744e+02
1.017309520876802557e-06, 4.752428973769621395e-02, 1.951990485999313855e-27, -4.892027382839242478e+02
1.016275669737700109e-06, 3.337003081668781651e-02, 1.164583057321370382e-27, -4.915570603981327622e+02
1.015243917788727645e-06, 2.343021227146764932e-02, 2.685578700064236382e-26, -4.939183720677415863e+02
1.014214258642897386e-06, 1.622602947312214855e-02, 1.111696851222048276e-25, -4.965778099170907467e+02
1.013186685939105403e-06, 1.197014251632612901e-02, 1.417117135746564197e-25, -4.990703371354959472e+02
1.012161193342000953e-06, 9.086396258447921107e-03, 1.127627556541883040e-25, -5.005801928633271700e+02
1.011137774541857312e-06, 7.599997180938807169e-03, 8.255792303251724223e-26, -5.031315870880820853e+02
1.010116423254441328e-06, 6.671186252328239856e-03, 8.380729011057758037e-26, -5.056761612382434805e+02
1.009097133220884890e-06, 6.378554561912157250e-03, 1.681366686102892799e-26, -5.084515113688827341e+02
1.008079898207557442e-06, 6.075119688900532458e-03, 9.249280041307315867e-27, -5.115039782146793073e+02
1.007064712005938508e-06, 5.997765211071623241e-03, 8.442639990770665181e-27, -5.107164266329911015e+02
1.006051568432491909e-06, 5.861618554596787628e-03, -8.556859473931407964e-27, -5.092244097945880981e+02
1.005040461328539553e-06, 5.934354051985744893e-03, 5.246448190112195603e-27, -5.094404241609935298e+02
1.004031384560137345e-06, 5.844931214635782496e-03, 7.920887548923400859e-27, -5.066455409040971745e+02
1.003024332017950675e-06, 6.066921939603239257e-03, -1.267463620897202920e-26, -5.078450314640042507e+02
1.002019297617131172e-06, 5.964351027770369018e-03, 3.397544170603741833e-27, -5.071939970898147862e+02
1.001016275297194096e-06, 5.872645545670450787e-03, -1.308416894009966873e-26, -5.077635528632132491e+02
1.000015259021896792e-06, 5.890249468622256630e-03, 7.212699643408690304e-27, -5.060167344562980247e+02
9.990162427791177741e-07, 5.902488708285811084e-03, 5.152735462220078199e-27, -5.082299093940957846e+02
9.980192205807355977e-07, 5.869523540872039619e-03, 1.097002363496347211e-26, -5.078918059584251523e+02
9.970241864625094314e-07, 5.854905856177016095e-03, 1.117386036101932826e-26, -5.061794739652681301e+02
9.960311344839611055e-07, 5.811616805543302552e-03, -1.479113932645652244e-26, -5.069997185483082944e+02
9.950400587282556813e-07, 5.760563121858817102e-03, 1.801977969783968328e-26, -5.088463119510652177e+02
9.940509533020843481e-07, 5.907286440808888831e-03, -3.314628109032261587e-26, -5.115437974908304568e+02
9.930638123355481686e-07, 5.920627553485490434e-03, 3.542641373367419276e-27, -5.130589513038028144e+02
9.920786299820405527e-07, 5.850259174004390772e-03, -3.369406769745560715e-28, -5.129740447392699707e+02
9.910954004181337548e-07, 5.801969811226263818e-03, 3.064703033217536377e-26, -5.129664172745851829e+02
9.901141178434621958e-07, 5.908300886467905168e-03, 5.840409460542328536e-27, -5.148200140655774248e+02
9.891347764806102306e-07, 5.929133068775370441e-03, -4.195558640907736445e-26, -5.162672363910137392e+02
9.881573705749969518e-07, 5.994993861452078618e-03, 2.658387013772111022e-26, -5.174105186737854183e+02
9.871818943947648048e-07, 5.844143907687556622e-03, -2.971117203779783774e-27, -5.161942866224795807e+02
9.862083422306675680e-07, 5.996431633556071304e-03, -1.767807361777316214e-26, -5.135434606386849055e+02
9.852367083959574852e-07, 5.952943405366260127e-03, -1.703546936261480287e-27, -5.130058198235271902e+02
9.842669872262764221e-07, 5.909274772383264068e-03, 1.570430096651989909e-26, -5.119240520658610194e+02
9.832991730795446935e-07, 5.977217658899040310e-03, 8.402439105155851634e-27, -5.113592080956052541e+02
9.823332603358515837e-07, 5.801896178273055135e-03, 3.874671603914864369e-27, -5.109169886522150250e+02
9.813692433973473503e-07, 5.890400013492964187e-03, -2.610701635344046197e-27, -5.085055522387932569e+02
9.804071166881341683e-07, 5.798513622339684058e-03, -5.365943247303115989e-27, -5.094013441813239638e+02
9.794468746541596162e-07, 5.884304299956835335e-03, -1.052340801635854232e-26, -5.074330464338918318e+02
9.784885117631084671e-07, 5.945043161184473436e-03, 5.409140029937756214e-27, -5.097398923521211032e+02
9.775320225042980803e-07, 6.004610416129390997e-03, 2.070640182470054228e-26, -5.087307962038011055e+02
9.765774013885712517e-07, 5.936724671509626544e-03, -8.487284506296131999e-27, -5.062828486636267371e+02
9.756246429481920287e-07, 5.979361370053224052e-03, -1.244759219272264874e-26, -5.076427900895353105e+02
9.746737417367415250e-07, 5.892096867076849868e-03, 8.516624540243753425e-27, -5.049543796357972383e+02
9.737246923290135240e-07, 6.031673081060414006e-03, 6.175345236187015552e-27, -5.077330315240950540e+02
9.727774893209113524e-07, 5.864119058187609347e-03, -2.415823401716038287e-26, -5.093480389995462474e+02
9.718321273293458129e-07, 5.972246582512924680e-03, 2.594551267261837079e-26, -5.082472074103769728e+02
9.708886009921329048e-07, 5.837294878091162965e-03, 6.165138603142570500e-27, -5.097569607233115789e+02
9.699469049678921799e-07, 5.986215078374709092e-03, -1.632614631522694110e-26, -5.109151549329063187e+02
9.690070339359467931e-07, 5.810758859661235495e-03, 1.082523835051310495e-26, -5.087493689149293346e+02
9.680689825962216464e-07, 6.084463213993082827e-03, -2.777386094792826262e-26, -5.077793694927634647e+02
9.671327456691459798e-07, 5.918704986993878446e-03, 2.281632981758833615e-26, -5.073077991734451189e+02
9.661983178955525751e-07, 6.004585830233007994e-03, 5.022094273773364179e-27, -5.098773598631405548e+02
9.652656940365801345e-07, 5.881520189741857967e-03, -2.537253803016069670e-26, -5.122224845623140936e+02
9.643348688735746022e-07, 5.912024250577478136e-03, 1.873391867708594503e-26, -5.105677936152727625e+02
9.634058372079932370e-07, 5.925971060185219151e-03, -2.514904107961681904e-26, -5.127138438321308058e+02
9.624785938613059336e-07, 5.840663872761555145e-03, 4.696393736451707285e-27, -5.139564489567932242e+02
9.615531336749007782e-07, 5.901871845884568493e-03, -5.360898074451658574e-27, -5.112273558521469567e+02
9.606294515099874867e-07, 5.873795716405663322e-03, 5.606175399046068129e-27, -5.138307213224625229e+02
9.597075422475016901e-07, 5.989592621853214935e-03, 4.380619594275917787e-27, -5.123998155407587092e+02
9.587874007880123959e-07, 5.943686647042198574e-03, 1.176258919049777244e-26, -5.103842326695859697e+02
9.578690220516252151e-07, 6.017732885441975411e-03, 3.247873507893962852e-27, -5.094676617785183339e+02
9.569524009778917291e-07, 5.767334974070859391e-03, -1.419895634952771506e-26, -5.091707048084306848e+02
9.560375325257139871e-07, 5.897370361717784067e-03, 9.624017340232776632e-27, -5.088802501589708527e+02
9.551244116732540850e-07, 5.831098123311302846e-03, -1.949597086030788175e-26, -5.104220534571733765e+02
9.542130334178405687e-07, 5.893404190718285439e-03, 1.567374339370361183e-26, -5.075262425318971395e+02
9.533033927758788602e-07, 6.084523156613251549e-03, 2.056197053613083403e-26, -5.076106580963261194e+02
9.523954847827590364e-07, 5.874175318249347591e-03, -6.551793736770177442e-27, -5.047934465749395940e+02
9.514893044927658328e-07, 5.869596870875222992e-03, -1.728921552048282320e-26, -5.030307585483483876e+02
9.505848469789894925e-07, 5.826839829111446489e-03, 5.817103706992105025e-29, -5.039013473699270662e+02
